0	0.00438692	4.48781
0.000977517	0.0087738	4.48774
0.00195503	0.0131606	4.48764
0.00293255	0.0175473	4.48749
0.00391007	0.0219338	4.4873
0.00488759	0.0263201	4.48707
0.0058651	0.0307061	4.48679
0.00684262	0.0350919	4.48647
0.00782014	0.0394773	4.48611
0.00879765	0.0438624	4.48571
0.00977517	0.048247	4.48527
0.0107527	0.0526312	4.48478
0.0117302	0.0570149	4.48425
0.0127077	0.0613981	4.48368
0.0136852	0.0657806	4.48307
0.0146628	0.0701626	4.48241
0.0156403	0.0745439	4.48172
0.0166178	0.0789245	4.48098
0.0175953	0.0833044	4.48019
0.0185728	0.0876834	4.47937
0.0195503	0.0920617	4.4785
0.0205279	0.096439	4.4776
0.0215054	0.100816	4.47665
0.0224829	0.105191	4.47565
0.0234604	0.109566	4.47462
0.0244379	0.113939	4.47354
0.0254154	0.118311	4.47243
0.026393	0.122683	4.47127
0.0273705	0.127053	4.47007
0.028348	0.131422	4.46882
0.0293255	0.13579	4.46754
0.030303	0.140156	4.46621
0.0312805	0.144521	4.46484
0.0322581	0.148885	4.46343
0.0332356	0.153247	4.46198
0.0342131	0.157608	4.46049
0.0351906	0.161968	4.45895
0.0361681	0.166326	4.45737
0.0371457	0.170682	4.45576
0.0381232	0.175037	4.4541
0.0391007	0.17939	4.4524
0.0400782	0.183741	4.45065
0.0410557	0.188091	4.44887
0.0420332	0.192439	4.44705
0.0430108	0.196785	4.44518
0.0439883	0.20113	4.44327
0.0449658	0.205472	4.44133
0.0459433	0.209812	4.43934
0.0469208	0.214151	4.43731
0.0478983	0.218488	4.43524
0.0488759	0.222822	4.43312
0.0498534	0.227154	4.43097
0.0508309	0.231485	4.42878
0.0518084	0.235813	4.42655
0.0527859	0.240139	4.42427
0.0537634	0.244462	4.42196
0.054741	0.248784	4.4196
0.0557185	0.253103	4.41721
0.056696	0.25742	4.41477
0.0576735	0.261734	4.41229
0.058651	0.266046	4.40978
0.0596285	0.270355	4.40722
0.0606061	0.274662	4.40462
0.0615836	0.278966	4.40199
0.0625611	0.283268	4.39931
0.0635386	0.287567	4.39659
0.0645161	0.291864	4.39384
0.0654936	0.296157	4.39104
0.0664712	0.300448	4.38821
0.0674487	0.304736	4.38533
0.0684262	0.309022	4.38242
0.0694037	0.313304	4.37946
0.0703812	0.317584	4.37647
0.0713587	0.32186	4.37344
0.0723363	0.326134	4.37037
0.0733138	0.330404	4.36726
0.0742913	0.334672	4.36411
0.0752688	0.338936	4.36092
0.0762463	0.343198	4.35769
0.0772239	0.347456	4.35442
0.0782014	0.351711	4.35112
0.0791789	0.355962	4.34778
0.0801564	0.360211	4.3444
0.0811339	0.364456	4.34098
0.0821114	0.368697	4.33752
0.083089	0.372936	4.33402
0.0840665	0.377171	4.33049
0.085044	0.381402	4.32692
0.0860215	0.38563	4.32331
0.086999	0.389854	4.31966
0.0879765	0.394075	4.31597
0.0889541	0.398292	4.31225
0.0899316	0.402506	4.30849
0.0909091	0.406715	4.30469
0.0918866	0.410921	4.30086
0.0928641	0.415124	4.29698
0.0938416	0.419322	4.29307
0.0948192	0.423517	4.28913
0.0957967	0.427707	4.28514
0.0967742	0.431894	4.28112
0.0977517	0.436077	4.27707
0.0987292	0.440256	4.27297
0.0997067	0.444431	4.26884
0.100684	0.448602	4.26468
0.101662	0.452769	4.26048
0.102639	0.456931	4.25624
0.103617	0.46109	4.25196
0.104594	0.465244	4.24765
0.105572	0.469394	4.24331
0.106549	0.47354	4.23892
0.107527	0.477681	4.23451
0.108504	0.481818	4.23005
0.109482	0.485951	4.22557
0.110459	0.490079	4.22104
0.111437	0.494203	4.21648
0.112414	0.498323	4.21189
0.113392	0.502438	4.20726
0.11437	0.506548	4.2026
0.115347	0.510654	4.1979
0.116325	0.514755	4.19317
0.117302	0.518852	4.1884
0.11828	0.522944	4.1836
0.119257	0.527031	4.17876
0.120235	0.531113	4.17389
0.121212	0.535191	4.16899
0.12219	0.539264	4.16405
0.123167	0.543332	4.15908
0.124145	0.547395	4.15408
0.125122	0.551453	4.14904
0.1261	0.555506	4.14397
0.127077	0.559555	4.13886
0.128055	0.563598	4.13373
0.129032	0.567636	4.12856
0.13001	0.571669	4.12335
0.130987	0.575697	4.11812
0.131965	0.57972	4.11285
0.132942	0.583738	4.10755
0.13392	0.587751	4.10221
0.134897	0.591758	4.09685
0.135875	0.59576	4.09145
0.136852	0.599757	4.08602
0.13783	0.603749	4.08056
0.138807	0.607735	4.07507
0.139785	0.611715	4.06954
0.140762	0.615691	4.06398
0.14174	0.619661	4.0584
0.142717	0.623625	4.05278
0.143695	0.627584	4.04713
0.144673	0.631537	4.04145
0.14565	0.635485	4.03574
0.146628	0.639427	4.03
0.147605	0.643364	4.02422
0.148583	0.647295	4.01842
0.14956	0.65122	4.01259
0.150538	0.65514	4.00672
0.151515	0.659053	4.00083
0.152493	0.662961	3.99491
0.15347	0.666864	3.98896
0.154448	0.67076	3.98297
0.155425	0.67465	3.97696
0.156403	0.678535	3.97092
0.15738	0.682414	3.96485
0.158358	0.686286	3.95875
0.159335	0.690153	3.95262
0.160313	0.694014	3.94647
0.16129	0.697869	3.94028
0.162268	0.701717	3.93407
0.163245	0.70556	3.92783
0.164223	0.709396	3.92156
0.1652	0.713227	3.91526
0.166178	0.717051	3.90893
0.167155	0.720869	3.90258
0.168133	0.72468	3.8962
0.16911	0.728486	3.88979
0.170088	0.732285	3.88335
0.171065	0.736078	3.87689
0.172043	0.739865	3.8704
0.173021	0.743645	3.86388
0.173998	0.747419	3.85733
0.174976	0.751186	3.85076
0.175953	0.754947	3.84416
0.176931	0.758701	3.83754
0.177908	0.762449	3.83089
0.178886	0.766191	3.82421
0.179863	0.769926	3.81751
0.180841	0.773654	3.81078
0.181818	0.777376	3.80403
0.182796	0.781091	3.79725
0.183773	0.7848	3.79044
0.184751	0.788502	3.78361
0.185728	0.792197	3.77676
0.186706	0.795885	3.76988
0.187683	0.799567	3.76297
0.188661	0.803242	3.75604
0.189638	0.80691	3.74909
0.190616	0.810572	3.74211
0.191593	0.814226	3.7351
0.192571	0.817874	3.72807
0.193548	0.821515	3.72102
0.194526	0.825149	3.71395
0.195503	0.828776	3.70685
0.196481	0.832396	3.69972
0.197458	0.836009	3.69258
0.198436	0.839615	3.68541
0.199413	0.843214	3.67821
0.200391	0.846806	3.671
0.201369	0.850391	3.66376
0.202346	0.853969	3.6565
0.203324	0.857539	3.64921
0.204301	0.861103	3.64191
0.205279	0.864659	3.63458
0.206256	0.868209	3.62722
0.207234	0.871751	3.61985
0.208211	0.875286	3.61245
0.209189	0.878813	3.60504
0.210166	0.882333	3.5976
0.211144	0.885847	3.59014
0.212121	0.889352	3.58265
0.213099	0.892851	3.57515
0.214076	0.896342	3.56763
0.215054	0.899826	3.56008
0.216031	0.903302	3.55251
0.217009	0.906771	3.54493
0.217986	0.910232	3.53732
0.218964	0.913686	3.52969
0.219941	0.917133	3.52204
0.220919	0.920572	3.51437
0.221896	0.924004	3.50668
0.222874	0.927428	3.49897
0.223851	0.930844	3.49124
0.224829	0.934253	3.4835
0.225806	0.937655	3.47573
0.226784	0.941048	3.46794
0.227761	0.944435	3.46013
0.228739	0.947813	3.45231
0.229717	0.951184	3.44446
0.230694	0.954547	3.4366
0.231672	0.957903	3.42872
0.232649	0.96125	3.42082
0.233627	0.96459	3.4129
0.234604	0.967923	3.40496
0.235582	0.971247	3.397
0.236559	0.974564	3.38903
0.237537	0.977873	3.38104
0.238514	0.981174	3.37303
0.239492	0.984467	3.365
0.240469	0.987753	3.35695
0.241447	0.99103	3.34889
0.242424	0.9943	3.34081
0.243402	0.997562	3.33272
0.244379	1.00082	3.3246
0.245357	1.00406	3.31647
0.246334	1.0073	3.30832
0.247312	1.01053	3.30016
0.248289	1.01375	3.29198
0.249267	1.01697	3.28378
0.250244	1.02017	3.27557
0.251222	1.02337	3.26734
0.252199	1.02656	3.25909
0.253177	1.02974	3.25083
0.254154	1.03291	3.24255
0.255132	1.03608	3.23426
0.256109	1.03924	3.22595
0.257087	1.04239	3.21762
0.258065	1.04553	3.20929
0.259042	1.04866	3.20093
0.26002	1.05179	3.19256
0.260997	1.0549	3.18418
0.261975	1.05801	3.17578
0.262952	1.06111	3.16736
0.26393	1.0642	3.15893
0.264907	1.06729	3.15049
0.265885	1.07036	3.14203
0.266862	1.07343	3.13356
0.26784	1.07649	3.12508
0.268817	1.07954	3.11658
0.269795	1.08258	3.10806
0.270772	1.08562	3.09953
0.27175	1.08864	3.09099
0.272727	1.09166	3.08244
0.273705	1.09467	3.07387
0.274682	1.09767	3.06529
0.27566	1.10066	3.0567
0.276637	1.10364	3.04809
0.277615	1.10662	3.03947
0.278592	1.10959	3.03083
0.27957	1.11255	3.02219
0.280547	1.1155	3.01353
0.281525	1.11844	3.00486
0.282502	1.12137	2.99618
0.28348	1.12429	2.98748
0.284457	1.12721	2.97877
0.285435	1.13012	2.97005
0.286413	1.13302	2.96132
0.28739	1.13591	2.95258
0.288368	1.13879	2.94382
0.289345	1.14166	2.93505
0.290323	1.14453	2.92627
0.2913	1.14738	2.91748
0.292278	1.15023	2.90868
0.293255	1.15307	2.89987
0.294233	1.1559	2.89105
0.29521	1.15872	2.88221
0.296188	1.16154	2.87337
0.297165	1.16434	2.86451
0.298143	1.16714	2.85564
0.29912	1.16992	2.84677
0.300098	1.1727	2.83788
0.301075	1.17547	2.82898
0.302053	1.17823	2.82007
0.30303	1.18098	2.81115
0.304008	1.18373	2.80222
0.304985	1.18646	2.79328
0.305963	1.18919	2.78433
0.30694	1.19191	2.77538
0.307918	1.19461	2.76641
0.308895	1.19731	2.75743
0.309873	1.20001	2.74844
0.31085	1.20269	2.73945
0.311828	1.20536	2.73044
0.312805	1.20803	2.72142
0.313783	1.21068	2.7124
0.314761	1.21333	2.70337
0.315738	1.21597	2.69432
0.316716	1.2186	2.68527
0.317693	1.22122	2.67621
0.318671	1.22383	2.66715
0.319648	1.22643	2.65807
0.320626	1.22902	2.64898
0.321603	1.23161	2.63989
0.322581	1.23419	2.63079
0.323558	1.23675	2.62168
0.324536	1.23931	2.61256
0.325513	1.24186	2.60343
0.326491	1.2444	2.5943
0.327468	1.24693	2.58515
0.328446	1.24946	2.576
0.329423	1.25197	2.56685
0.330401	1.25447	2.55768
0.331378	1.25697	2.54851
0.332356	1.25946	2.53933
0.333333	1.26193	2.53014
0.334311	1.2644	2.52095
0.335288	1.26686	2.51174
0.336266	1.26931	2.50254
0.337243	1.27175	2.49332
0.338221	1.27419	2.4841
0.339198	1.27661	2.47487
0.340176	1.27903	2.46563
0.341153	1.28143	2.45639
0.342131	1.28383	2.44714
0.343109	1.28622	2.43788
0.344086	1.28859	2.42862
0.345064	1.29096	2.41935
0.346041	1.29332	2.41007
0.347019	1.29568	2.40079
0.347996	1.29802	2.3915
0.348974	1.30035	2.38221
0.349951	1.30268	2.37291
0.350929	1.30499	2.3636
0.351906	1.3073	2.35429
0.352884	1.30959	2.34497
0.353861	1.31188	2.33565
0.354839	1.31416	2.32632
0.355816	1.31643	2.31699
0.356794	1.31869	2.30765
0.357771	1.32094	2.2983
0.358749	1.32318	2.28895
0.359726	1.32542	2.27959
0.360704	1.32764	2.27023
0.361681	1.32985	2.26087
0.362659	1.33206	2.25149
0.363636	1.33426	2.24212
0.364614	1.33644	2.23274
0.365591	1.33862	2.22335
0.366569	1.34079	2.21396
0.367546	1.34295	2.20456
0.368524	1.3451	2.19516
0.369501	1.34724	2.18576
0.370479	1.34937	2.17635
0.371457	1.3515	2.16693
0.372434	1.35361	2.15751
0.373412	1.35571	2.14809
0.374389	1.35781	2.13866
0.375367	1.35989	2.12923
0.376344	1.36197	2.1198
0.377322	1.36404	2.11036
0.378299	1.3661	2.10091
0.379277	1.36815	2.09146
0.380254	1.37019	2.08201
0.381232	1.37222	2.07255
0.382209	1.37424	2.06309
0.383187	1.37625	2.05363
0.384164	1.37825	2.04416
0.385142	1.38025	2.03469
0.386119	1.38223	2.02522
0.387097	1.38421	2.01574
0.388074	1.38617	2.00626
0.389052	1.38813	1.99677
0.390029	1.39008	1.98728
0.391007	1.39201	1.97779
0.391984	1.39394	1.96829
0.392962	1.39586	1.9588
0.393939	1.39777	1.94929
0.394917	1.39967	1.93979
0.395894	1.40156	1.93028
0.396872	1.40345	1.92077
0.397849	1.40532	1.91125
0.398827	1.40718	1.90174
0.399804	1.40904	1.89222
0.400782	1.41088	1.88269
0.40176	1.41272	1.87317
0.402737	1.41454	1.86364
0.403715	1.41636	1.85411
0.404692	1.41817	1.84457
0.40567	1.41997	1.83504
0.406647	1.42176	1.8255
0.407625	1.42354	1.81595
0.408602	1.42531	1.80641
0.40958	1.42707	1.79686
0.410557	1.42882	1.78731
0.411535	1.43056	1.77776
0.412512	1.4323	1.76821
0.41349	1.43402	1.75865
0.414467	1.43573	1.74909
0.415445	1.43744	1.73953
0.416422	1.43913	1.72997
0.4174	1.44082	1.7204
0.418377	1.4425	1.71083
0.419355	1.44417	1.70127
0.420332	1.44582	1.69169
0.42131	1.44747	1.68212
0.422287	1.44911	1.67255
0.423265	1.45074	1.66297
0.424242	1.45236	1.65339
0.42522	1.45397	1.64381
0.426197	1.45558	1.63422
0.427175	1.45717	1.62464
0.428152	1.45875	1.61505
0.42913	1.46033	1.60547
0.430108	1.46189	1.59588
0.431085	1.46345	1.58628
0.432063	1.46499	1.57669
0.43304	1.46653	1.5671
0.434018	1.46806	1.5575
0.434995	1.46957	1.5479
0.435973	1.47108	1.5383
0.43695	1.47258	1.5287
0.437928	1.47407	1.5191
0.438905	1.47555	1.5095
0.439883	1.47702	1.49989
0.44086	1.47848	1.49029
0.441838	1.47994	1.48068
0.442815	1.48138	1.47107
0.443793	1.48281	1.46146
0.44477	1.48424	1.45185
0.445748	1.48565	1.44224
0.446725	1.48706	1.43263
0.447703	1.48845	1.42301
0.44868	1.48984	1.4134
0.449658	1.49122	1.40378
0.450635	1.49258	1.39416
0.451613	1.49394	1.38454
0.45259	1.49529	1.37492
0.453568	1.49663	1.3653
0.454545	1.49796	1.35568
0.455523	1.49928	1.34606
0.4565	1.50059	1.33643
0.457478	1.50189	1.32681
0.458456	1.50318	1.31719
0.459433	1.50447	1.30756
0.460411	1.50574	1.29793
0.461388	1.507	1.2883
0.462366	1.50826	1.27868
0.463343	1.5095	1.26905
0.464321	1.51074	1.25942
0.465298	1.51197	1.24979
0.466276	1.51318	1.24015
0.467253	1.51439	1.23052
0.468231	1.51559	1.22089
0.469208	1.51678	1.21126
0.470186	1.51796	1.20162
0.471163	1.51913	1.19199
0.472141	1.52029	1.18235
0.473118	1.52144	1.17272
0.474096	1.52258	1.16308
0.475073	1.52371	1.15344
0.476051	1.52484	1.14381
0.477028	1.52595	1.13417
0.478006	1.52705	1.12453
0.478983	1.52815	1.11489
0.479961	1.52923	1.10525
0.480938	1.53031	1.09561
0.481916	1.53137	1.08597
0.482893	1.53243	1.07633
0.483871	1.53348	1.06669
0.484848	1.53452	1.05705
0.485826	1.53555	1.04741
0.486804	1.53656	1.03777
0.487781	1.53757	1.02813
0.488759	1.53857	1.01848
0.489736	1.53957	1.00884
0.490714	1.54055	0.999197
0.491691	1.54152	0.989554
0.492669	1.54248	0.97991
0.493646	1.54343	0.970266
0.494624	1.54438	0.960622
0.495601	1.54531	0.950977
0.496579	1.54624	0.941333
0.497556	1.54715	0.931688
0.498534	1.54806	0.922043
0.499511	1.54896	0.912397
0.500489	1.54984	0.902752
0.501466	1.55072	0.893106
0.502444	1.55159	0.88346
0.503421	1.55245	0.873814
0.504399	1.5533	0.864168
0.505376	1.55414	0.854522
0.506354	1.55497	0.844875
0.507331	1.55579	0.835229
0.508309	1.5566	0.825582
0.509286	1.5574	0.815935
0.510264	1.5582	0.806288
0.511241	1.55898	0.796642
0.512219	1.55975	0.786994
0.513196	1.56052	0.777347
0.514174	1.56127	0.7677
0.515152	1.56202	0.758053
0.516129	1.56275	0.748405
0.517107	1.56348	0.738758
0.518084	1.5642	0.72911
0.519062	1.56491	0.719463
0.520039	1.56561	0.709815
0.521017	1.56629	0.700168
0.521994	1.56697	0.69052
0.522972	1.56764	0.680873
0.523949	1.56831	0.671225
0.524927	1.56896	0.661577
0.525904	1.5696	0.651929
0.526882	1.57023	0.642282
0.527859	1.57085	0.632634
0.528837	1.57147	0.622986
0.529814	1.57207	0.613339
0.530792	1.57267	0.603691
0.531769	1.57325	0.594043
0.532747	1.57383	0.584396
0.533724	1.5744	0.574748
0.534702	1.57495	0.5651
0.535679	1.5755	0.555453
0.536657	1.57604	0.545805
0.537634	1.57657	0.536158
0.538612	1.57709	0.52651
0.539589	1.5776	0.516863
0.540567	1.5781	0.507215
0.541544	1.57859	0.497568
0.542522	1.57907	0.48792
0.5435	1.57954	0.478273
0.544477	1.58001	0.468626
0.545455	1.58046	0.458978
0.546432	1.5809	0.449331
0.54741	1.58134	0.439684
0.548387	1.58176	0.430037
0.549365	1.58218	0.42039
0.550342	1.58258	0.410743
0.55132	1.58298	0.401096
0.552297	1.58337	0.391449
0.553275	1.58375	0.381802
0.554252	1.58411	0.372155
0.55523	1.58447	0.362508
0.556207	1.58482	0.352861
0.557185	1.58516	0.343214
0.558162	1.58549	0.333568
0.55914	1.58582	0.323921
0.560117	1.58613	0.314274
0.561095	1.58643	0.304628
0.562072	1.58672	0.294981
0.56305	1.58701	0.285335
0.564027	1.58728	0.275689
0.565005	1.58755	0.266042
0.565982	1.5878	0.256396
0.56696	1.58805	0.24675
0.567937	1.58828	0.237103
0.568915	1.58851	0.227457
0.569892	1.58873	0.217811
0.57087	1.58894	0.208165
0.571848	1.58914	0.198519
0.572825	1.58932	0.188873
0.573803	1.5895	0.179227
0.57478	1.58967	0.169581
0.575758	1.58984	0.159935
0.576735	1.58999	0.150289
0.577713	1.59013	0.140643
0.57869	1.59026	0.130997
0.579668	1.59039	0.121351
0.580645	1.5905	0.111705
0.581623	1.5906	0.102059
0.5826	1.5907	0.0924135
0.583578	1.59078	0.0827677
0.584555	1.59086	0.0731219
0.585533	1.59093	0.0634762
0.58651	1.59099	0.0538304
0.587488	1.59103	0.0441847
0.588465	1.59107	0.034539
0.589443	1.5911	0.0248932
0.59042	1.59112	0.0152475
0.591398	1.59113	0.00560182
0.592375	1.59113	-0.0040439
0.593353	1.59112	-0.0136896
0.59433	1.5911	-0.0233353
0.595308	1.59108	-0.032981
0.596285	1.59104	-0.0426268
0.597263	1.59099	-0.0522725
0.59824	1.59094	-0.0619183
0.599218	1.59087	-0.071564
0.600196	1.5908	-0.0812098
0.601173	1.59071	-0.0908556
0.602151	1.59062	-0.100501
0.603128	1.59052	-0.110147
0.604106	1.5904	-0.119793
0.605083	1.59028	-0.129439
0.606061	1.59015	-0.139085
0.607038	1.59001	-0.148731
0.608016	1.58986	-0.158377
0.608993	1.5897	-0.168023
0.609971	1.58953	-0.177669
0.610948	1.58935	-0.187315
0.611926	1.58917	-0.196961
0.612903	1.58897	-0.206607
0.613881	1.58876	-0.216253
0.614858	1.58855	-0.225899
0.615836	1.58832	-0.235545
0.616813	1.58809	-0.245192
0.617791	1.58784	-0.254838
0.618768	1.58759	-0.264484
0.619746	1.58732	-0.274131
0.620723	1.58705	-0.283777
0.621701	1.58677	-0.293423
0.622678	1.58648	-0.30307
0.623656	1.58618	-0.312716
0.624633	1.58587	-0.322363
0.625611	1.58555	-0.33201
0.626588	1.58522	-0.341656
0.627566	1.58488	-0.351303
0.628543	1.58453	-0.36095
0.629521	1.58417	-0.370597
0.630499	1.58381	-0.380244
0.631476	1.58343	-0.38989
0.632454	1.58304	-0.399537
0.633431	1.58265	-0.409184
0.634409	1.58224	-0.418831
0.635386	1.58183	-0.428479
0.636364	1.58141	-0.438126
0.637341	1.58097	-0.447773
0.638319	1.58053	-0.45742
0.639296	1.58008	-0.467067
0.640274	1.57962	-0.476715
0.641251	1.57915	-0.486362
0.642229	1.57867	-0.496009
0.643206	1.57818	-0.505657
0.644184	1.57768	-0.515304
0.645161	1.57717	-0.524952
0.646139	1.57665	-0.534599
0.647116	1.57612	-0.544247
0.648094	1.57559	-0.553894
0.649071	1.57504	-0.563542
0.650049	1.57449	-0.57319
0.651026	1.57392	-0.582837
0.652004	1.57335	-0.592485
0.652981	1.57276	-0.602133
0.653959	1.57217	-0.61178
0.654936	1.57157	-0.621428
0.655914	1.57095	-0.631076
0.656891	1.57033	-0.640724
0.657869	1.5697	-0.650371
0.658847	1.56906	-0.660019
0.659824	1.56841	-0.669667
0.660802	1.56775	-0.679314
0.661779	1.56708	-0.688962
0.662757	1.56641	-0.69861
0.663734	1.56572	-0.708257
0.664712	1.56502	-0.717905
0.665689	1.56431	-0.727552
0.666667	1.5636	-0.7372
0.667644	1.56287	-0.746847
0.668622	1.56214	-0.756495
0.669599	1.56139	-0.766142
0.670577	1.56064	-0.775789
0.671554	1.55988	-0.785436
0.672532	1.5591	-0.795083
0.673509	1.55832	-0.80473
0.674487	1.55753	-0.814377
0.675464	1.55673	-0.824024
0.676442	1.55592	-0.833671
0.677419	1.5551	-0.843317
0.678397	1.55427	-0.852964
0.679374	1.55343	-0.86261
0.680352	1.55259	-0.872256
0.681329	1.55173	-0.881902
0.682307	1.55086	-0.891548
0.683284	1.54999	-0.901194
0.684262	1.5491	-0.910839
0.685239	1.5482	-0.920485
0.686217	1.5473	-0.93013
0.687195	1.54639	-0.939775
0.688172	1.54546	-0.94942
0.68915	1.54453	-0.959064
0.690127	1.54359	-0.968708
0.691105	1.54264	-0.978352
0.692082	1.54167	-0.987996
0.69306	1.5407	-0.99764
0.694037	1.53972	-1.00728
0.695015	1.53874	-1.01693
0.695992	1.53774	-1.02657
0.69697	1.53673	-1.03621
0.697947	1.53571	-1.04585
0.698925	1.53468	-1.05549
0.699902	1.53365	-1.06514
0.70088	1.5326	-1.07478
0.701857	1.53155	-1.08442
0.702835	1.53048	-1.09406
0.703812	1.52941	-1.1037
0.70479	1.52832	-1.11334
0.705767	1.52723	-1.12297
0.706745	1.52613	-1.13261
0.707722	1.52502	-1.14225
0.7087	1.52389	-1.15189
0.709677	1.52276	-1.16152
0.710655	1.52162	-1.17116
0.711632	1.52047	-1.1808
0.71261	1.51932	-1.19043
0.713587	1.51815	-1.20007
0.714565	1.51697	-1.2097
0.715543	1.51578	-1.21933
0.71652	1.51459	-1.22897
0.717498	1.51338	-1.2386
0.718475	1.51216	-1.24823
0.719453	1.51094	-1.25786
0.72043	1.5097	-1.26749
0.721408	1.50846	-1.27712
0.722385	1.50721	-1.28675
0.723363	1.50595	-1.29638
0.72434	1.50467	-1.306
0.725318	1.50339	-1.31563
0.726295	1.5021	-1.32526
0.727273	1.5008	-1.33488
0.72825	1.49949	-1.3445
0.729228	1.49817	-1.35413
0.730205	1.49684	-1.36375
0.731183	1.49551	-1.37337
0.73216	1.49416	-1.38299
0.733138	1.4928	-1.39261
0.734115	1.49144	-1.40223
0.735093	1.49006	-1.41184
0.73607	1.48868	-1.42146
0.737048	1.48728	-1.43107
0.738025	1.48588	-1.44069
0.739003	1.48447	-1.4503
0.73998	1.48304	-1.45991
0.740958	1.48161	-1.46952
0.741935	1.48017	-1.47913
0.742913	1.47872	-1.48874
0.743891	1.47726	-1.49834
0.744868	1.47579	-1.50795
0.745846	1.47431	-1.51755
0.746823	1.47282	-1.52715
0.747801	1.47133	-1.53675
0.748778	1.46982	-1.54635
0.749756	1.4683	-1.55595
0.750733	1.46678	-1.56555
0.751711	1.46524	-1.57514
0.752688	1.4637	-1.58474
0.753666	1.46214	-1.59433
0.754643	1.46058	-1.60392
0.755621	1.45901	-1.61351
0.756598	1.45743	-1.62309
0.757576	1.45583	-1.63268
0.758553	1.45423	-1.64226
0.759531	1.45262	-1.65184
0.760508	1.451	-1.66142
0.761486	1.44938	-1.671
0.762463	1.44774	-1.68057
0.763441	1.44609	-1.69015
0.764418	1.44443	-1.69972
0.765396	1.44277	-1.70929
0.766373	1.44109	-1.71886
0.767351	1.43941	-1.72842
0.768328	1.43771	-1.73799
0.769306	1.43601	-1.74755
0.770283	1.4343	-1.75711
0.771261	1.43257	-1.76666
0.772239	1.43084	-1.77622
0.773216	1.4291	-1.78577
0.774194	1.42735	-1.79532
0.775171	1.42559	-1.80487
0.776149	1.42382	-1.81441
0.777126	1.42204	-1.82395
0.778104	1.42026	-1.83349
0.779081	1.41846	-1.84303
0.780059	1.41665	-1.85257
0.781036	1.41484	-1.8621
0.782014	1.41301	-1.87163
0.782991	1.41118	-1.88115
0.783969	1.40934	-1.89068
0.784946	1.40748	-1.9002
0.785924	1.40562	-1.90972
0.786901	1.40375	-1.91923
0.787879	1.40187	-1.92874
0.788856	1.39998	-1.93825
0.789834	1.39808	-1.94776
0.790811	1.39617	-1.95726
0.791789	1.39425	-1.96676
0.792766	1.39233	-1.97626
0.793744	1.39039	-1.98575
0.794721	1.38844	-1.99524
0.795699	1.38649	-2.00472
0.796676	1.38452	-2.01421
0.797654	1.38255	-2.02369
0.798631	1.38057	-2.03316
0.799609	1.37858	-2.04263
0.800587	1.37657	-2.0521
0.801564	1.37456	-2.06157
0.802542	1.37254	-2.07103
0.803519	1.37051	-2.08048
0.804497	1.36848	-2.08994
0.805474	1.36643	-2.09939
0.806452	1.36437	-2.10883
0.807429	1.36231	-2.11827
0.808407	1.36023	-2.12771
0.809384	1.35815	-2.13714
0.810362	1.35605	-2.14657
0.811339	1.35395	-2.15599
0.812317	1.35184	-2.16541
0.813294	1.34972	-2.17483
0.814272	1.34759	-2.18424
0.815249	1.34545	-2.19364
0.816227	1.3433	-2.20305
0.817204	1.34114	-2.21244
0.818182	1.33897	-2.22183
0.819159	1.33679	-2.23122
0.820137	1.33461	-2.2406
0.821114	1.33241	-2.24998
0.822092	1.33021	-2.25935
0.823069	1.328	-2.26872
0.824047	1.32577	-2.27808
0.825024	1.32354	-2.28744
0.826002	1.3213	-2.29679
0.826979	1.31905	-2.30614
0.827957	1.31679	-2.31548
0.828935	1.31453	-2.32481
0.829912	1.31225	-2.33414
0.83089	1.30996	-2.34347
0.831867	1.30767	-2.35279
0.832845	1.30536	-2.3621
0.833822	1.30305	-2.37141
0.8348	1.30073	-2.38071
0.835777	1.2984	-2.39
0.836755	1.29605	-2.39929
0.837732	1.2937	-2.40857
0.83871	1.29135	-2.41785
0.839687	1.28898	-2.42712
0.840665	1.2866	-2.43638
0.841642	1.28421	-2.44564
0.84262	1.28182	-2.45489
0.843597	1.27942	-2.46414
0.844575	1.277	-2.47338
0.845552	1.27458	-2.48261
0.84653	1.27215	-2.49183
0.847507	1.26971	-2.50105
0.848485	1.26726	-2.51026
0.849462	1.2648	-2.51946
0.85044	1.26233	-2.52866
0.851417	1.25986	-2.53785
0.852395	1.25737	-2.54703
0.853372	1.25488	-2.5562
0.85435	1.25237	-2.56537
0.855327	1.24986	-2.57453
0.856305	1.24734	-2.58368
0.857283	1.24481	-2.59282
0.85826	1.24227	-2.60196
0.859238	1.23972	-2.61108
0.860215	1.23717	-2.6202
0.861193	1.2346	-2.62932
0.86217	1.23203	-2.63842
0.863148	1.22944	-2.64751
0.864125	1.22685	-2.6566
0.865103	1.22425	-2.66568
0.86608	1.22164	-2.67475
0.867058	1.21902	-2.68381
0.868035	1.21639	-2.69286
0.869013	1.21376	-2.70191
0.86999	1.21111	-2.71094
0.870968	1.20846	-2.71997
0.871945	1.20579	-2.72898
0.872923	1.20312	-2.73799
0.8739	1.20044	-2.74699
0.874878	1.19775	-2.75598
0.875855	1.19505	-2.76496
0.876833	1.19234	-2.77393
0.87781	1.18963	-2.78289
0.878788	1.1869	-2.79184
0.879765	1.18417	-2.80078
0.880743	1.18143	-2.80971
0.88172	1.17868	-2.81863
0.882698	1.17592	-2.82754
0.883675	1.17315	-2.83644
0.884653	1.17037	-2.84533
0.88563	1.16759	-2.85421
0.886608	1.16479	-2.86308
0.887586	1.16199	-2.87194
0.888563	1.15918	-2.88078
0.889541	1.15636	-2.88962
0.890518	1.15353	-2.89845
0.891496	1.15069	-2.90726
0.892473	1.14784	-2.91606
0.893451	1.14499	-2.92486
0.894428	1.14213	-2.93364
0.895406	1.13925	-2.9424
0.896383	1.13637	-2.95116
0.897361	1.13348	-2.95991
0.898338	1.13059	-2.96864
0.899316	1.12768	-2.97736
0.900293	1.12477	-2.98607
0.901271	1.12184	-2.99477
0.902248	1.11891	-3.00346
0.903226	1.11597	-3.01213
0.904203	1.11302	-3.02079
0.905181	1.11007	-3.02944
0.906158	1.1071	-3.03807
0.907136	1.10413	-3.0467
0.908113	1.10114	-3.05531
0.909091	1.09815	-3.0639
0.910068	1.09515	-3.07249
0.911046	1.09215	-3.08106
0.912023	1.08913	-3.08961
0.913001	1.08611	-3.09816
0.913978	1.08307	-3.10669
0.914956	1.08003	-3.1152
0.915934	1.07698	-3.1237
0.916911	1.07392	-3.13219
0.917889	1.07086	-3.14067
0.918866	1.06778	-3.14913
0.919844	1.0647	-3.15757
0.920821	1.06161	-3.166
0.921799	1.05851	-3.17442
0.922776	1.05541	-3.18282
0.923754	1.05229	-3.19121
0.924731	1.04917	-3.19958
0.925709	1.04603	-3.20794
0.926686	1.04289	-3.21628
0.927664	1.03975	-3.22461
0.928641	1.03659	-3.23292
0.929619	1.03343	-3.24121
0.930596	1.03025	-3.24949
0.931574	1.02707	-3.25776
0.932551	1.02388	-3.26601
0.933529	1.02069	-3.27424
0.934506	1.01748	-3.28245
0.935484	1.01427	-3.29065
0.936461	1.01105	-3.29884
0.937439	1.00782	-3.307
0.938416	1.00458	-3.31516
0.939394	1.00134	-3.32329
0.940371	0.998088	-3.33141
0.941349	0.994827	-3.33951
0.942326	0.991559	-3.34759
0.943304	0.988283	-3.35565
0.944282	0.984998	-3.3637
0.945259	0.981706	-3.37173
0.946237	0.978407	-3.37974
0.947214	0.975099	-3.38774
0.948192	0.971784	-3.39572
0.949169	0.96846	-3.40368
0.950147	0.965129	-3.41162
0.951124	0.96179	-3.41954
0.952102	0.958444	-3.42744
0.953079	0.95509	-3.43533
0.954057	0.951728	-3.44319
0.955034	0.948358	-3.45104
0.956012	0.944981	-3.45887
0.956989	0.941596	-3.46668
0.957967	0.938203	-3.47447
0.958944	0.934803	-3.48224
0.959922	0.931395	-3.48999
0.960899	0.92798	-3.49773
0.961877	0.924557	-3.50544
0.962854	0.921127	-3.51313
0.963832	0.917689	-3.5208
0.964809	0.914244	-3.52846
0.965787	0.910791	-3.53609
0.966764	0.90733	-3.5437
0.967742	0.903863	-3.55129
0.968719	0.900388	-3.55886
0.969697	0.896905	-3.56641
0.970674	0.893415	-3.57394
0.971652	0.889918	-3.58144
0.97263	0.886413	-3.58893
0.973607	0.882901	-3.59639
0.974585	0.879382	-3.60384
0.975562	0.875856	-3.61126
0.97654	0.872322	-3.61866
0.977517	0.868781	-3.62603
0.978495	0.865233	-3.63339
0.979472	0.861678	-3.64072
0.98045	0.858115	-3.64803
0.981427	0.854546	-3.65532
0.982405	0.850969	-3.66259
0.983382	0.847385	-3.66983
0.98436	0.843794	-3.67705
0.985337	0.840197	-3.68425
0.986315	0.836592	-3.69142
0.987292	0.83298	-3.69857
0.98827	0.829361	-3.7057
0.989247	0.825735	-3.7128
0.990225	0.822102	-3.71988
0.991202	0.818462	-3.72694
0.99218	0.814816	-3.73397
0.993157	0.811162	-3.74098
0.994135	0.807502	-3.74796
0.995112	0.803835	-3.75492
0.99609	0.800161	-3.76185
0.997067	0.79648	-3.76876
0.998045	0.792793	-3.77565
0.999022	0.789099	-3.78251
1	0.785398	-3.78934
